Energy [eV]	Cross Section	Asymmetry Parameter
1000.0	0.08687	2
1041.0	0.08198	2
1050.0	0.08095	2
1100.0	0.07586	2
1150.0	0.07117000000000001	2
1200.0	0.06688	2
1250.0	0.06298	2
1253.6	0.06271	2
1300.0	0.059410000000000004	2
1350.0	0.05612999999999999	2
1400.0	0.05312000000000001	2
1450.0	0.050339999999999996	2
1486.6	0.04844	2
1500.0	0.04778	2
